distance,velocity,density,pressure,speed_of_sound,mass_flow,entropy,mach_number,quality,stable_fraction
0.0,1.315102167405369,785.7437687689684,6100000.0,358.26664711996517,0.031,1178.8875346197294,0.0036707356880056113,-1.0,0.0
0.001807562744328438,1.4057818193572653,785.7430135715389,6099903.067233343,358.2644583686143,0.031000000000004413,1178.8875346197287,0.003923866257229658,-1.0,0.0
0.0036150951917732895,1.509891026506951,785.7420844468156,6099783.811791909,358.26176550186057,0.031000000000012202,1178.887534619729,0.004214491112083546,-1.0,0.0
0.005338333406357828,1.6245943294003438,785.7409839347114,6099642.560678258,358.25857586232536,0.0310000000000227,1178.8875346197274,0.0045346976705022595,-1.0,0.0
0.006932248333500459,1.7473771012734236,785.7397166282775,6099479.904569892,358.2549027403899,0.031000000000034476,1178.8875346197283,0.004877468774069126,-1.0,0.0
0.00840592865865851,1.878650715249468,785.7382595673503,6099292.897994304,358.2506795624055,0.031000000000047604,1178.8875346197285,0.005243955761770485,-1.0,0.0
0.009769359644328512,2.0189818212253914,785.7365852641143,6099078.014885085,358.245826622108,0.031000000000062256,1178.8875346197283,0.005635744148821848,-1.0,0.0
0.011031646712080482,2.1689812736631695,785.734662245702,6098831.218402969,358.2402526499137,0.031000000000078638,1178.8875346197278,0.006054543724830337,-1.0,0.0
0.012201049866240828,2.3293022618215784,785.7324545383495,6098547.89495973,358.23385331344446,0.031000000000096953,1178.8875346197285,0.006502183532563867,-1.0,0.0
0.013285070563287243,2.500643110595622,785.7299210274302,6098222.772384465,358.22650935691814,0.03100000000011745,1178.8875346197283,0.006980619929788927,-1.0,0.0
0.014290530278999545,2.6837504704939272,785.7270147235165,6097849.826125295,358.2180844663625,0.031000000000140422,1178.887534619728,0.0074919457918823686,-1.0,0.0
0.01522364015405101,2.8794227723606958,785.7236819223576,6097422.171961776,358.2084228249697,0.031000000000166193,1178.8875346197278,0.008038400520156554,-1.0,0.0
0.016090062674658595,3.088513949993013,785.7198612433733,6096931.943290712,358.19734631319574,0.031000000000195118,1178.8875346197274,0.00862238087965208,-1.0,0.0
0.016894966362743978,3.311937448410849,785.7154825287779,6096370.150741544,358.1846513007977,0.03100000000022763,1178.8875346197271,0.009246452734317576,-1.0,0.0
0.017643074443714903,3.5506705740256215,785.7104655819553,6095726.521444708,358.1701049675599,0.03100000000026418,1178.887534619728,0.009913363859184206,-1.0,0.0
0.01833870811425384,3.8057591942495463,785.7047187213036,6094989.314989231,358.15344108207995,0.03100000000030533,1178.8875346197271,0.010626057878297363,-1.0,0.0
0.0189858251331836,4.078322845147889,785.698137121003,6094145.112521929,358.1343551536441,0.031000000000351673,1178.8875346197274,0.011387689526178624,-1.0,0.0
0.019588054240461814,4.369560273668365,785.6906009062972,6093178.574980774,358.1124988603485,0.031000000000403913,1178.8875346197276,0.01220164134894477,-1.0,0.0
0.020148725964254887,4.680755495668647,785.6819729642675,6092072.165654536,358.0874736364821,0.03100000000046286,1178.8875346197262,0.013071542123867718,-1.0,0.0
0.02067090017209099,5.013284404279438,785.6720964257879,6090805.831644224,358.05882328567395,0.031000000000529396,1178.8875346197265,0.014001287158003183,-1.0,0.0
0.021157390777880668,5.368622015678384,785.6607917655016,6089356.637749797,358.0260254589627,0.031000000000604603,1178.8875346197262,0.014995060788656945,-1.0,0.0
0.02161078792714481,5.748350439300811,785.6478534574013,6087698.345226636,357.98848180801485,0.031000000000689643,1178.8875346197246,0.01605736142757684,-1.0,0.0
0.022033477936058674,6.154167667728984,785.6330461123428,6085800.926557835,357.94550658811124,0.031000000000785868,1178.887534619725,0.017193029537902818,-1.0,0.0
0.022427661252110057,6.587897322880985,785.6161000090457,6083630.005685045,357.8963134388603,0.031000000000894864,1178.8875346197235,0.018407279079186156,-1.0,0.0
0.02279536862593951,7.051499474642482,785.5967059145486,6081146.21139651,357.8400000201885,0.031000000001018362,1178.8875346197206,0.019705732937191633,-1.0,0.0
0.023138475736278127,7.5470827580385835,785.5745090658171,6078304.428800611,357.77553010371,0.03100000000115846,1178.887534619719,0.02109446321231325,-1.0,0.0
0.02345871639496417,8.07691796073232,785.5491021611657,6075052.931314715,357.7017126433054,0.031000000001317432,1178.8875346197174,0.02258003715175526,-1.0,0.0
0.02375769450210357,8.643453358475428,785.5200171749509,6071332.371700022,357.61717723365354,0.031000000001498062,1178.8875346197133,0.02416956988849594,-1.0,0.0
0.024036894888409023,9.24933212919393,785.4867157671747,6067074.606140398,357.52034522635546,0.031000000001703394,1178.8875346197076,0.02587078540478007,-1.0,0.0
0.024297693169637445,9.897412269902166,785.4485780050238,6062201.319487752,357.409395590452,0.03100000000193707,1178.8875346197024,0.02769208753886091,-1.0,0.0
0.02454136468043921,10.590789427444323,785.4048890511758,6056622.413356702,357.2822243895778,0.031000000002203213,1178.8875346196942,0.02964264299893131,-1.0,0.0
0.024769092635465166,11.332823383043454,785.3548233735951,6050234.10803077,357.13639641008547,0.031000000002506634,1178.887534619685,0.03173247951471859,-1.0,0.0
0.024981975563446477,12.127168900089062,785.2974259255616,6042916.698469694,356.96908709947553,0.031000000002852874,1178.8875346196724,0.03397260249795697,-1.0,0.0
0.025181034102541425,12.977811961974984,785.2315895852244,6034531.88833349,356.77701241605706,0.031000000003248433,1178.887534619655,0.03637513491715899,-1.0,0.0
0.025367217214349487,13.889112632403384,785.1560279437716,6024919.605983799,356.55634347135157,0.031000000003700942,1178.8875346196326,0.03895348627704148,-1.0,0.0
0.025541407893378103,14.865856238203058,785.0692422470586,6013894.178096551,356.3026018199948,0.031000000004219208,1178.8875346196025,0.04172255875277985,-1.0,0.0
0.025704428408734003,15.91331491633725,784.9694809293084,6001239.70118942,356.0105298908491,0.031000000004813663,1178.8875346195641,0.04469900067623333,-1.0,0.0
0.0258570451306314,17.037322262997026,784.8546896558333,5986704.401356842,355.67392909191943,0.031000000005496527,1178.8875346195125,0.047901521223372955,-1.0,0.0
0.025999972980453936,18.24436460428812,784.722449077418,5969993.705699751,355.2854553679919,0.031000000006282304,1178.887534619445,0.05135128480109399,-1.0,0.0
0.02613387953712714,19.541693468442368,784.5698964947705,5950761.657076719,354.83635802215645,0.03100000000718803,1178.8875346193547,0.05507241021570332,-1.0,0.0
0.026259388803542658,20.937464966966274,784.393626242251,5928600.181353734,354.3161419221251,0.031000000008233893,1178.887534619232,0.059092608237894244,-1.0,0.0
0.026377084642370607,22.440913487810786,784.1895615973789,5903025.544937235,353.7121247361535,0.03100000000944379,1178.8875346190703,0.06344400408821231,-1.0,0.0
0.026487513803971713,24.06256796434204,783.9527883305026,5873461.127643034,353.00884867420524,0.031000000010845914,1178.8875346188497,0.0681642062365116,-1.0,0.0
0.026591188424102304,25.814519523001728,783.6773362699078,5839215.365035193,352.1872880828451,0.031000000012472845,1178.8875346185491,0.07329770379710404,-1.0,0.0
0.02668858764835575,27.710744971969323,783.3558907772643,5799453.469428996,351.22376888458814,0.031000000014361144,1178.8875346181403,0.07889769265893577,-1.0,0.0
0.02678015773554787,29.767476748709417,782.9794115286801,5753161.481703239,350.0884814851185,0.031000000016549418,1178.8875346175764,0.08502843801781798,-1.0,0.0
0.026866309241640223,32.00356697218644,782.5366359321089,5699101.992270344,348.7434317029086,0.031000000019071373,1178.8875346167997,0.09176822862559314,-1.0,0.0
0.02694740849115817,34.440681460893316,782.0134617491542,5635764.186529884,347.1396614916456,0.03100000002193916,1178.8875346157229,0.09921275291017756,-1.0,0.0
0.026962759781205284,34.94464112997468,781.8998964149226,5622092.688582952,346.7893645011788,0.031000000021939297,1178.8875346161497,0.10076618462691031,-1.0,0.0
0.026963373035270077,34.965081679226905,781.895250872421,5621534.025451485,346.7750182370563,0.031000000021939395,1178.8875346158088,0.1008292980762665,-1.0,0.0
0.026963986227013514,34.98554421627009,781.8905972540646,5620974.43747999,346.76064569563755,0.031000000021939447,1178.8875346157258,0.1008924878026037,-1.0,0.0
0.026964231486236046,34.99373539478068,781.8887335414735,5620750.342908997,346.75488777626646,0.03100000002193939,1178.8875354945437,0.10091778552624,-4.865596895935337e-10,0.0
0.026964256390882606,34.99456737701502,781.8885442169587,5620727.578602635,346.75679321311225,0.031000000021939415,1178.8861067360226,0.10091963030557792,7.908206851611048e-07,0.0
0.02696444641185524,35.00085257162683,781.877919858063,5620555.590776139,57.922132248396046,0.03099957931781215,1178.8875346313646,0.6042742422106889,7.982283895723434e-07,0.00022293371629304078
0.026964622365551746,35.00667525937355,781.8765652342768,5620396.23169379,57.92107490931748,0.03099952678242906,1178.8875346313646,0.6043858010953833,8.139462280981161e-07,0.00040245682402809536
0.026964910630075497,35.01622014725814,781.8743132522334,5620134.944290297,57.91934310452424,0.03099944066127902,1178.8875346313646,0.6045686686063766,8.558292951768264e-07,0.0006689521108254213
0.026965331508408477,35.030168260630305,781.8709591614592,5619752.993653569,57.91681520140019,0.03099931480225687,1178.8875346313646,0.6048358864142692,9.494600161890642e-07,0.0010219678726996577
0.026965940605493857,35.05037911027161,781.865978345752,5619199.279319634,57.91315743776632,0.03099913240658739,1178.8875346313646,0.605223072976756,1.1469423156723979e-06,0.0014877932138372498
0.026966805307527826,35.07912144552098,781.8586706221381,5618411.284978367,57.90796487969202,0.030998872951988478,1178.8875346313646,0.6057736879270476,1.542389833661693e-06,0.002093232088712633
0.026968012888451416,35.11935797327795,781.8480349589046,5617307.095693255,57.90071177025741,0.030998509588880337,1178.8875346313646,0.6065444948695459,2.3024572904420884e-06,0.002870207767942783
0.026969673673606868,35.17487807430917,781.8326449184481,5615781.434576395,57.89073044831712,0.03099800787673363,1178.8875346313646,0.607608123129697,3.7135698746111056e-06,0.0038554663995231187
0.026971925535158717,35.25049365348796,781.810454973389,5613699.734618229,57.87718019089597,0.030997323895674046,1178.8875346313646,0.6090568603588056,6.255887062321579e-06,0.005090935605877086
0.026974938633841906,35.35227332165562,781.7785165144068,5610890.775222315,57.85901090084624,0.03099640191800534,1178.8875346313646,0.6110072186031539,1.0716387126393225e-05,0.006623859566670576
0.026978920457704957,35.48783357711207,781.7325590854923,5607137.134313248,57.83491872782674,0.030995171407077176,1178.8875346313646,0.6136056617304007,1.835905980842898e-05,0.00850677159536965
0.026984120910384324,35.66670420155841,781.6663742046427,5602162.608238054,57.803290934387924,0.03099354308385437,1178.8875346313646,0.6170358750342332,3.1177299067168914e-05,0.010797197716638987
0.026990837074649953,35.90079308339358,781.5709095653995,5595615.312616893,57.76213567117673,0.03099140366414599,1178.8875346313646,0.6215281458387636,5.2263354243651554e-05,0.013556973937817782
0.02699941695103339,36.20498206225892,781.4329390570281,5587044.653328067,57.70899061925894,0.030988608705702747,1178.8875346313646,0.6273716049051187,8.634237990058084e-05,0.01685098658670038
0.027010260940246788,36.59789100910652,781.2331129494343,5575869.651241603,57.64080217953054,0.03098497278087844,1178.8875346313646,0.6349302859303926,0.00014053395425160675,0.020745051605537985
0.027023818845411756,37.10284269571965,780.9431105976169,5561335.383494137,57.55376503781667,0.030980255955766537,1178.8875346313646,0.6446640401603719,0.00022541843517461115,0.025302480838522615
0.027040578352141895,37.749025600391285,780.5215257526908,5542454.05852481,57.44311283014569,0.030974145453179776,1178.8875346313646,0.6571549440924604,0.0003564867178754055,0.030578604544111557
0.027061037837064972,38.57274064819454,779.9080656853846,5517928.845061581,57.30286005022472,0.030966231806909994,1178.8875346313646,0.6731381403020087,0.000556004680244135,0.036612119421414964
0.027085651803369706,39.618345269348055,779.0158070276764,5486065.289789001,57.125525752626686,0.030955980737174118,1178.8875346313646,0.6935313898187864,0.0008551441141346815,0.043411738065025615
0.02711473305566004,40.937960110429316,777.72202115607,5444693.087763988,56.901941477018326,0.030942707181550497,1178.8875346313646,0.7194475100109444,0.0012957623966597246,0.050936815927590674
0.02714829854072477,42.58813323759374,775.8601830697545,5391158.4713638,56.62138277513198,0.030925568877949575,1178.8875346313646,0.752156361258955,0.0019302635747132715,0.059072730350453934
0.02718586616625061,44.620627957804786,773.2201898206147,5322512.496690901,56.27249105988299,0.03090361628455411,1178.8875346313646,0.792938558741273,0.0028165462297539854,0.06760678522060005
0.027226269182636185,47.064931131937676,769.569504705318,5236071.982785809,55.84559887933641,0.030875951854674653,1178.8875346313646,0.8427688497643152,0.0040043637027621926,0.07622014049020506
0.027267725969273578,49.91127502570687,764.696093262316,5130192.799992035,55.335515740366915,0.030841948517499978,1178.8875346313646,0.9019754195459121,0.005516317771279142,0.08453584871242589
0.027308434839055883,53.12275607305147,758.4211354498851,5004190.20952158,54.74015534030612,0.030801192973647508,1178.8875346313646,0.9704531480190425,0.007344166955994344,0.0922482983693099
0.027347247418828574,56.67770488953184,750.5311950753903,4856933.196999465,54.0538006766001,0.03075299066381502,1178.8875346313646,1.048542455481167,0.009471379256427402,0.09922411051588619
0.027348748704750108,56.82681331835123,750.1786335876784,4850583.512911959,54.024356026172185,0.030750895327043115,1178.8875346313646,1.051873960160143,0.00956236190477915,0.09948696177596135
0.02734904855013402,56.85670840102708,750.1077377839689,4849308.802738169,54.0184461500395,0.030750474499643896,1178.8875346313646,1.0525424637929075,0.009580617427373728,0.09953939930177261
0.027349348258138017,56.886628025173714,750.0367135496259,4848032.495632685,54.01252926335447,0.030750053082773118,1178.8875346313646,1.0532117047843788,0.009598892638513096,0.09959179265620992
0.027349947261809525,56.946541028452216,749.8942787622991,4845475.08061831,54.00067440921299,0.030749208475801895,1178.8875346313646,1.0545524042332448,0.009635502168092187,0.09969644697115189
0.027349988017432568,56.950623030247996,749.8845641203241,4845300.758163272,53.99986639718062,0.030749150895245762,1178.8875346313646,1.0546437765487036,0.009637997133158523,0.09970356462873015
0.027349995316758507,56.95135419134548,749.8828239123246,4845269.5327457925,53.9997216632152,0.03074914058103564,1178.8875346313646,1.0546601433714602,0.00963844403610195,0.09970483936086844
0.027349998973746712,56.95172051424066,749.8819520257126,4845253.888210455,53.999649148799534,0.030749135413403638,1178.8875346313646,1.054668343442501,0.009638667942354774,0.09970547800171001
0.02734999952905046,56.951776139881,749.8818196299787,4845251.512601537,53.999638137553895,0.03074913462870235,1178.8875346313646,1.0546695886147808,0.009638701942279766,0.09970557497732918
0.0273499998160876,56.951804892889704,749.8817511942541,4845250.284643621,53.99963244581652,0.030749134223088417,1178.8875346313646,1.0546702322471435,0.009638719516917704,0.09970562510411016
0.027350000103124623,56.95182073011449,749.881707962472,4845249.608281303,53.999629640892046,0.030749132663074958,1178.8875346313646,1.0546705803142555,0.009638731389925962,0.09970567523085387
0.027350000377819126,56.95182135393833,749.8816949483318,4845249.581639579,53.999630204726095,0.03074913265427473,1178.8875346313646,1.0546705808543455,0.009638736337109809,0.09970572320215502
0.027350003124763315,56.951827592175576,749.8815648069905,4845249.315222388,53.99963584306846,0.03074913256627297,1178.8875346313646,1.0546705862551862,0.009638785808932583,0.09970620291486208
0.027350030594121583,56.95188997443256,749.8802633984974,4845246.651056357,53.99969222633916,0.030749131686260017,1178.8875346313646,1.0546706402643795,0.009639280525590271,0.0997110000114823
0.027350305279341628,56.952513785450975,749.8672498066679,4845220.009983168,54.000256043770385,0.030749122886635526,1178.8875346313646,1.0546711804345448,0.00964422753516827,0.09975896793283892
0.027353051295602976,56.95875074074111,749.7371631786199,4844953.6579481205,54.00589269096272,0.030749034940896126,1178.8875346313646,1.0546765899542758,0.009693681936635286,0.10023834285556017
0.027380428184565767,57.02100505528374,748.4412054579125,4842295.9918248085,54.06210693733274,0.030748160505075377,1178.8875346313646,1.0547314613797953,0.010186662071456166,0.10500185546020557
0.02758738957431962,57.49596602043491,738.7010872336671,4822074.936048468,54.48814518528503,0.030741686604705547,1178.8875346313646,1.0552013805006923,0.013909401316677275,0.1401072926819953
0.027790582557460915,57.9697015983975,729.2369800319898,4802001.546491072,54.90819262823765,0.03073555933981688,1178.8875346313646,1.0557568702158557,0.017556547581993237,0.17307292876880354
0.02799616864988601,58.45646651615393,719.7618670781309,4781472.838159236,55.33485601564468,0.030729582254740675,1178.8875346313646,1.056413095203983,0.02123761270009537,0.2049884355683677
0.028203696584604754,58.955402440460155,710.3005018962277,4760530.019420052,55.76713936457366,0.03072376716327851,1178.8875346313646,1.0571709991262679,0.02494311049450827,0.23581009925563004
0.028412920707065855,59.46610369704133,700.8673392635238,4739194.6946447035,56.20446109115653,0.03071811824432237,1178.8875346313646,1.0580317388079716,0.028667310212169894,0.26553445272977483
0.028623563754148037,59.988066701167156,691.4775031190179,4717492.149468066,56.64616609045366,0.030712639228762037,1178.8875346313646,1.058996059951826,0.03240401092769172,0.2941592906963037
0.028835325413616334,60.52071066595197,682.1462616806059,4695450.398855028,57.091546466584134,0.030707332661240684,1178.8875346313646,1.0600643074430456,0.03614673339754851,0.3216850239007919
0.02904778090415299,61.06311821629582,672.8933400955036,4673110.769171868,57.53962748613879,0.03070220401074203,1178.8875346313646,1.0612358974865772,0.03988697802816822,0.3481022789293068
0.029260793310142526,61.615094780397605,663.7248478204589,4650484.250646505,57.99004495715102,0.030697249289225095,1178.8875346313646,1.0625115884273781,0.04362151930208802,0.3734424453871595
0.029473889748257383,62.175579315232866,654.6603700537179,4627616.887533909,58.44173064406929,0.030692471726008284,1178.8875346313646,1.0638901112272672,0.047341466709402216,0.397700035341886
0.02968669207381271,62.74374635799469,645.7140638603074,4604544.302828643,58.89382500687273,0.03068787093210063,1178.8875346313646,1.0653705435276564,0.05103989601012995,0.4208863848639072
0.02989880185303824,63.31872091327262,636.8996017416399,4581303.429328647,59.34543939441882,0.030683445752396486,1178.8875346313646,1.0669517583726489,0.05470986376891909,0.44301479718489367
0.030109806133301067,63.899602090403576,628.2298455624533,4557931.523509958,59.79567314639357,0.03067919418051841,1178.8875346313646,1.0686325402502392,0.058344550086775124,0.46410085923346645
0.030319278639729632,64.48547671065695,619.716726129093,4534465.608409237,60.24362133474492,0.03067511338802184,1178.8875346313646,1.0704116930876728,0.06193732002169704,0.4841621794570218
0.030526780744695548,65.0754341816302,611.3711381687939,4510941.882156082,60.68838229971248,0.030671199760900457,1178.8875346313646,1.0722881664607906,0.06548178016798559,0.5032180905813614
0.030731861952412304,65.66858206264116,603.2028582492565,4487395.1155502945,61.12906442269255,0.030667448944058994,1178.8875346313646,1.0742611993626952,0.06897182635466671,0.521289307618205
